* Measurement data measured by REW V5.20.5
* Source: Rohsa A Target Filtered
* Format: 
* Dated: 2022/03/22 18:24:37
* REW Settings:
*  C-weighting compensation: Off
*  Target level: -19.1 dB
* Note: 
* Measurement: Rohsa C Target
* Smoothing: 1/12 octave
* Frequency Step: 1/48 octave
* Start Frequency: 20.000 Hz
*
* Freq(Hz) SPL(dB)
20.000000 81.572
20.299999 81.570
20.600000 81.567
20.900000 81.565
21.200001 81.562
21.400000 81.560
21.799999 81.557
22.000000 81.555
22.400000 81.552
22.700001 81.550
23.000000 81.548
23.299999 81.545
23.600000 81.543
24.000000 81.540
24.299999 81.538
24.700001 81.535
25.000000 81.533
25.400000 81.531
25.799999 81.528
26.200001 81.525
26.500000 81.523
26.900000 81.521
27.200001 81.519
27.600000 81.516
28.000000 81.514
28.500000 81.510
29.000000 81.507
29.500000 81.503
30.000000 81.500
30.400000 81.497
30.700001 81.494
31.100000 81.491
31.500000 81.488
32.000000 81.483
32.500000 81.478
33.000000 81.473
33.500000 81.467
34.000000 81.461
34.500000 81.454
35.000000 81.447
35.500000 81.440
36.000000 81.431
36.500000 81.422
37.000000 81.413
37.500000 81.402
38.200001 81.386
38.700001 81.374
39.500000 81.353
40.000000 81.338
40.599998 81.320
41.200001 81.300
41.799999 81.278
42.500000 81.251
43.099998 81.227
43.700001 81.201
44.400002 81.169
45.000000 81.140
45.500000 81.115
46.200001 81.078
46.799999 81.045
47.500000 81.005
48.200001 80.963
48.700001 80.931
49.400002 80.886
50.000000 80.847
50.799999 80.792
51.500000 80.742
52.200001 80.691
53.000000 80.632
53.799999 80.571
54.500000 80.516
55.200001 80.461
56.000000 80.397
57.000000 80.315
58.000000 80.232
59.000000 80.148
60.000000 80.063
60.799999 79.995
61.500000 79.935
62.200001 79.876
63.000000 79.807
64.000000 79.722
65.000000 79.636
66.000000 79.551
67.000000 79.467
68.000000 79.383
69.000000 79.299
70.000000 79.217
71.000000 79.135
72.000000 79.054
73.000000 78.974
74.000000 78.895
75.000000 78.817
76.199997 78.724
77.500000 78.625
78.800003 78.528
80.000000 78.440
81.199997 78.353
82.500000 78.261
83.800003 78.170
85.000000 78.088
86.199997 78.006
87.500000 77.920
88.500000 77.854
90.000000 77.758
91.199997 77.682
92.500000 77.601
93.800003 77.521
95.000000 77.449
96.199997 77.378
97.500000 77.302
98.800003 77.227
100.000000 77.159
101.500000 77.075
103.000000 76.993
104.400002 76.917
106.000000 76.833
107.500000 76.755
109.000000 76.678
110.599998 76.598
112.000000 76.529
113.800003 76.442
115.000000 76.385
117.199997 76.283
118.000000 76.246
120.599998 76.130
122.000000 76.069
124.099998 75.980
125.000000 75.942
126.500000 75.881
128.000000 75.820
131.500000 75.684
132.000000 75.665
134.000000 75.591
136.000000 75.519
138.000000 75.449
140.000000 75.381
143.000000 75.282
145.000000 75.219
147.500000 75.143
150.000000 75.069
152.500000 74.999
155.000000 74.931
157.500000 74.866
160.000000 74.804
162.500000 74.744
165.000000 74.686
167.500000 74.631
170.000000 74.579
172.500000 74.528
175.000000 74.479
177.500000 74.433
180.000000 74.389
182.500000 74.346
185.000000 74.305
187.500000 74.267
190.000000 74.230
192.500000 74.195
195.000000 74.161
197.500000 74.129
200.000000 74.099
203.000000 74.064
206.000000 74.032
209.000000 74.002
212.000000 73.974
214.000000 73.957
218.000000 73.924
220.000000 73.909
224.000000 73.881
227.000000 73.862
230.000000 73.844
233.000000 73.828
236.000000 73.813
240.000000 73.796
243.000000 73.784
247.000000 73.770
250.000000 73.761
254.000000 73.751
258.000000 73.742
262.000000 73.734
265.000000 73.729
269.000000 73.724
272.000000 73.721
276.000000 73.717
280.000000 73.715
285.000000 73.713
290.000000 73.712
295.000000 73.711
300.000000 73.712
304.000000 73.713
307.000000 73.713
311.000000 73.715
315.000000 73.716
320.000000 73.718
325.000000 73.721
330.000000 73.723
335.000000 73.726
340.000000 73.728
345.000000 73.731
350.000000 73.733
355.000000 73.736
360.000000 73.738
365.000000 73.740
370.000000 73.742
375.000000 73.744
382.000000 73.747
387.000000 73.749
395.000000 73.752
400.000000 73.754
406.000000 73.755
412.000000 73.757
418.000000 73.759
425.000000 73.761
431.000000 73.763
437.000000 73.764
444.000000 73.766
450.000000 73.768
455.000000 73.769
462.000000 73.771
468.000000 73.773
475.000000 73.775
482.000000 73.778
487.000000 73.779
494.000000 73.782
500.000000 73.784
508.000000 73.787
515.000000 73.790
522.000000 73.793
530.000000 73.797
538.000000 73.801
545.000000 73.804
552.000000 73.808
560.000000 73.813
570.000000 73.819
580.000000 73.826
590.000000 73.834
600.000000 73.841
608.000000 73.848
615.000000 73.854
622.000000 73.861
630.000000 73.868
640.000000 73.878
650.000000 73.889
660.000000 73.900
670.000000 73.912
680.000000 73.925
690.000000 73.938
700.000000 73.952
710.000000 73.967
720.000000 73.982
730.000000 73.999
740.000000 74.015
750.000000 74.033
762.000000 74.055
775.000000 74.080
788.000000 74.106
800.000000 74.132
812.000000 74.159
825.000000 74.195
838.000000 74.242
850.000000 74.294
862.000000 74.345
875.000000 74.395
885.000000 74.433
900.000000 74.501
912.000000 74.560
925.000000 74.626
938.000000 74.692
950.000000 74.754
962.000000 74.816
975.000000 74.879
988.000000 74.940
1000.000000 75.000
1015.000000 75.085
1030.000000 75.182
1044.000000 75.276
1060.000000 75.380
1075.000000 75.474
1090.000000 75.569
1106.000000 75.671
1120.000000 75.759
1138.000000 75.871
1150.000000 75.946
1172.000000 76.087
1180.000000 76.141
1206.000000 76.320
1220.000000 76.414
1241.000000 76.552
1250.000000 76.611
1265.000000 76.710
1280.000000 76.810
1315.000000 77.042
1320.000000 77.074
1340.000000 77.192
1360.000000 77.301
1380.000000 77.407
1400.000000 77.513
1430.000000 77.676
1450.000000 77.785
1475.000000 77.922
1500.000000 78.059
1525.000000 78.195
1550.000000 78.329
1575.000000 78.461
1600.000000 78.591
1625.000000 78.718
1650.000000 78.843
1675.000000 78.965
1700.000000 79.085
1725.000000 79.203
1750.000000 79.319
1775.000000 79.434
1800.000000 79.546
1825.000000 79.658
1850.000000 79.768
1875.000000 79.877
1900.000000 79.985
1925.000000 80.092
1950.000000 80.199
1975.000000 80.304
2000.000000 80.407
2030.000000 80.524
2060.000000 80.630
2090.000000 80.731
2120.000000 80.836
2140.000000 80.911
2180.000000 81.064
2200.000000 81.136
2240.000000 81.271
2270.000000 81.370
2300.000000 81.469
2330.000000 81.568
2360.000000 81.666
2400.000000 81.799
2430.000000 81.895
2470.000000 82.015
2500.000000 82.102
2540.000000 82.214
2580.000000 82.317
2620.000000 82.414
2650.000000 82.485
2690.000000 82.577
2720.000000 82.642
2760.000000 82.724
2800.000000 82.797
2850.000000 82.865
2900.000000 82.906
2950.000000 82.928
3000.000000 82.931
3040.000000 82.917
3070.000000 82.896
3110.000000 82.853
3150.000000 82.802
3200.000000 82.734
3250.000000 82.655
3300.000000 82.559
3350.000000 82.448
3400.000000 82.328
3450.000000 82.203
3500.000000 82.077
3550.000000 81.949
3600.000000 81.820
3650.000000 81.688
3700.000000 81.551
3750.000000 81.412
3820.000000 81.219
3870.000000 81.080
3950.000000 80.855
4000.000000 80.720
4060.000000 80.566
4120.000000 80.411
4180.000000 80.251
4250.000000 80.064
4310.000000 79.913
4370.000000 79.775
4440.000000 79.625
4500.000000 79.495
4550.000000 79.382
4620.000000 79.222
4680.000000 79.085
4750.000000 78.928
4820.000000 78.776
4870.000000 78.669
4940.000000 78.523
5000.000000 78.401
5080.000000 78.241
5150.000000 78.106
5220.000000 77.973
5300.000000 77.825
5380.000000 77.681
5450.000000 77.558
5520.000000 77.437
5600.000000 77.302
5700.000000 77.137
5800.000000 76.976
5900.000000 76.816
6000.000000 76.653
6080.000000 76.516
6150.000000 76.393
6220.000000 76.272
6300.000000 76.144
6400.000000 75.997
6500.000000 75.859
6600.000000 75.725
6700.000000 75.595
6800.000000 75.468
6900.000000 75.343
7000.000000 75.219
7100.000000 75.092
7200.000000 74.960
7300.000000 74.821
7400.000000 74.685
7500.000000 74.560
7620.000000 74.423
7750.000000 74.284
7880.000000 74.150
8000.000000 74.029
8120.000000 73.909
8250.000000 73.775
8380.000000 73.632
8500.000000 73.497
8620.000000 73.371
8750.000000 73.248
8850.000000 73.158
9000.000000 73.022
9120.000000 72.907
9250.000000 72.779
9380.000000 72.656
9500.000000 72.548
9620.000000 72.441
9750.000000 72.322
9880.000000 72.203
10000.000000 72.097
10150.000000 71.964
10300.000000 71.834
10440.000000 71.717
10600.000000 71.582
10750.000000 71.454
10900.000000 71.327
11060.000000 71.199
11200.000000 71.093
11380.000000 70.959
11500.000000 70.867
11720.000000 70.698
11800.000000 70.637
12060.000000 70.442
12200.000000 70.340
12410.000000 70.190
12500.000000 70.127
12650.000000 70.024
12800.000000 69.922
13150.000000 69.693
13200.000000 69.661
13400.000000 69.535
13600.000000 69.412
13800.000000 69.292
14000.000000 69.173
14300.000000 68.992
14500.000000 68.867
14750.000000 68.716
15000.000000 68.576
15250.000000 68.440
15500.000000 68.301
15750.000000 68.160
16000.000000 68.024
16250.000000 67.890
16500.000000 67.759
16750.000000 67.632
17000.000000 67.507
17250.000000 67.385
17500.000000 67.268
17750.000000 67.152
18000.000000 67.039
18250.000000 66.928
18500.000000 66.816
18750.000000 66.702
19000.000000 66.597
19250.000000 66.504
19500.000000 66.427
19750.000000 66.367
20000.000000 66.333
